%Time, alt, RC_P, RC_I, RC_D, rc_T_send, x, y, z, phi, theta, psi
1424471575.301268, 0.161733, 37.721993, 0.000000, -0.000000, 1738.000000, 0.047247, -0.007151, 0.161733, 0.037572, -0.003813, -0.059270
1424471575.313323, 0.161748, 37.721360, 0.000000, -0.005630, 1738.000000, 0.046492, -0.007662, 0.161748, 0.039864, -0.005611, -0.063749
1424471575.327911, 0.161816, 37.718293, 0.000000, -0.032725, 1738.000000, 0.047260, -0.007055, 0.161816, 0.039054, -0.003749, -0.059852
1424471575.343394, 0.161879, 37.715424, 0.000000, -0.057217, 1738.000000, 0.046401, -0.007381, 0.161879, 0.033327, -0.003007, -0.064245
1424471575.357520, 0.161598, 37.728073, 0.000000, 0.056835, 1738.000000, 0.046503, -0.007377, 0.161598, 0.035515, -0.006418, -0.063797
1424471575.368385, 0.161995, 37.710232, 0.000000, -0.102988, 1738.000000, 0.046747, -0.007095, 0.161995, 0.032769, 0.000093, -0.059608
1424471575.378131, 0.161820, 37.718119, 0.000000, -0.030869, 1738.000000, 0.047028, -0.007272, 0.161820, 0.039039, -0.004574, -0.060265
1424471575.469724, 0.161898, 37.714601, 0.000000, -0.056483, 1738.000000, 0.046510, -0.007506, 0.161898, 0.031374, -0.001183, -0.064419
1424471575.570499, 0.164423, 37.600944, 0.000000, -1.055389, 1737.000000, 0.046628, -0.009284, 0.164423, 0.029524, 0.013916, -0.061373
1424471575.644717, 0.175502, 37.102403, 0.000000, -5.330154, 1732.000000, 0.048504, -0.018277, 0.175502, 0.053341, 0.077871, -0.048536
1424471575.744106, 0.193503, 36.292358, 0.000000, -11.473560, 1725.000000, 0.051652, -0.033190, 0.193503, 0.095925, 0.163048, -0.036203
1424471575.827805, 0.226675, 34.799622, 1.297591, -22.817128, 1713.000000, 0.062675, -0.064977, 0.226675, 0.136182, 0.232818, -0.004392
1424471575.949714, 0.257468, 33.413937, 3.108020, -29.571099, 1707.000000, 0.078425, -0.105934, 0.257468, 0.157675, 0.246322, 0.020828
1424471576.024456, 0.301692, 31.423865, 4.151666, -42.841117, 1693.000000, 0.116035, -0.190131, 0.301692, 0.174717, 0.158662, 0.073182
1424471576.088706, 0.331022, 30.104018, 5.008388, -49.086675, 1686.000000, 0.153074, -0.258541, 0.331022, 0.166508, 0.068187, 0.110681
1424471576.164890, 0.353407, 29.096697, 5.996537, -50.539022, 1685.000000, 0.186226, -0.313690, 0.353407, 0.142399, 0.019902, 0.130610
1424471576.239437, 0.381798, 27.819084, 6.917647, -54.365362, 1680.000000, 0.236316, -0.387191, 0.381798, 0.119785, -0.042110, 0.155417
1424471576.315395, 0.404209, 26.810587, 7.823547, -55.063519, 1680.000000, 0.285278, -0.449470, 0.404209, 0.103233, -0.082907, 0.173456
1424471576.389526, 0.426827, 25.792774, 8.673183, -55.948469, 1679.000000, 0.344631, -0.515669, 0.426827, 0.089465, -0.116323, 0.179488
1424471576.464913, 0.443802, 25.028916, 9.511852, -54.302079, 1680.000000, 0.400044, -0.567820, 0.443802, 0.082130, -0.127703, 0.182977
1424471576.538177, 0.460244, 24.289017, 10.302919, -52.920436, 1682.000000, 0.465672, -0.619092, 0.460244, 0.067308, -0.130823, 0.180964
1424471576.591555, 0.474021, 23.669066, 10.864264, -52.783239, 1682.000000, 0.523659, -0.656847, 0.474021, 0.038211, -0.114234, 0.176954
1424471576.664699, 0.482192, 23.301379, 11.619116, -48.356927, 1687.000000, 0.565983, -0.680289, 0.482192, 0.021056, -0.096359, 0.172524
1424471576.718285, 0.493158, 22.807890, 12.165349, -47.531972, 1687.000000, 0.632283, -0.712741, 0.493158, -0.001352, -0.067432, 0.167197
1424471576.790967, 0.499161, 22.537770, 12.893077, -43.026556, 1692.000000, 0.672405, -0.730637, 0.499161, -0.032706, -0.042837, 0.164458
1424471576.844716, 0.506784, 22.194699, 13.423325, -41.450370, 1694.000000, 0.724870, -0.754158, 0.506784, -0.073350, -0.012422, 0.164560
1424471576.984620, 0.510936, 22.007902, 14.791580, -31.514229, 1705.000000, 0.765820, -0.772750, 0.510936, -0.101066, 0.001185, 0.165162
1424471577.038993, 0.512943, 21.917572, 15.321430, -28.888850, 1708.000000, 0.848340, -0.814538, 0.512943, -0.090682, -0.010849, 0.155655
1424471577.091725, 0.511629, 21.976678, 15.836721, -25.315335, 1712.000000, 0.872230, -0.828605, 0.511629, -0.085620, -0.030766, 0.154303
1424471577.165296, 0.510368, 22.033432, 16.556654, -21.088601, 1718.000000, 0.893054, -0.841401, 0.510368, -0.087972, -0.049555, 0.151411
1424471577.240308, 0.509214, 22.085348, 17.293176, -17.462360, 1722.000000, 0.920092, -0.858294, 0.509214, -0.085250, -0.074909, 0.152951
1424471577.313518, 0.509008, 22.094659, 18.012382, -14.821699, 1725.000000, 0.938593, -0.869323, 0.509008, -0.077726, -0.098673, 0.153054
1424471577.396722, 0.508608, 22.112629, 18.829468, -12.197419, 1729.000000, 0.953531, -0.875977, 0.508608, -0.072449, -0.114872, 0.155057
1424471577.470209, 0.510087, 22.046069, 19.549914, -10.995362, 1731.000000, 0.961735, -0.875001, 0.510087, -0.071969, -0.117655, 0.158626
1424471577.543474, 0.512511, 21.937006, 20.264114, -10.353923, 1732.000000, 0.962909, -0.868425, 0.512511, -0.069156, -0.104549, 0.160340
1424471577.640984, 0.518135, 21.683939, 21.203906, -10.584065, 1732.000000, 0.959963, -0.856076, 0.518135, -0.062513, -0.085381, 0.163677
1424471577.714754, 0.526549, 21.305288, 21.902397, -12.388363, 1731.000000, 0.948954, -0.835158, 0.526549, -0.060697, -0.066035, 0.166976
1424471577.769411, 0.536286, 20.867113, 22.409135, -14.929473, 1728.000000, 0.932739, -0.810930, 0.536286, -0.055727, -0.055955, 0.170918
1424471577.863970, 0.543000, 20.564980, 23.273878, -14.790113, 1729.000000, 0.920277, -0.794728, 0.543000, -0.053751, -0.045703, 0.168790
1424471577.917548, 0.559869, 19.805890, 23.745294, -19.953442, 1724.000000, 0.890733, -0.759182, 0.559869, -0.033874, -0.043019, 0.160972
1424471577.991936, 0.570623, 19.321982, 24.383941, -21.287016, 1722.000000, 0.873710, -0.740076, 0.570623, -0.034222, -0.034225, 0.152899
1424471578.069348, 0.587469, 18.563877, 25.022613, -24.730107, 1719.000000, 0.847117, -0.711302, 0.587469, -0.027658, -0.025458, 0.141335
1424471578.144863, 0.608760, 17.605804, 25.613347, -29.512315, 1714.000000, 0.815121, -0.678989, 0.608760, -0.020747, -0.008627, 0.129172
1424471578.239630, 0.632538, 16.535799, 26.309790, -33.430059, 1709.000000, 0.780357, -0.646369, 0.632538, -0.018308, 0.007140, 0.112399
1424471578.312999, 0.662345, 15.194475, 26.805529, -40.444796, 1702.000000, 0.738933, -0.610731, 0.662345, -0.006376, 0.025349, 0.096791
1424471578.412642, 0.689705, 13.963265, 27.423760, -43.330683, 1698.000000, 0.699583, -0.580644, 0.689705, -0.002001, 0.060761, 0.086096
1424471578.486797, 0.724666, 12.390034, 27.832031, -50.889788, 1689.000000, 0.649680, -0.547570, 0.724666, 0.014666, 0.063824, 0.077933
1424471578.560548, 0.748707, 11.308192, 28.202753, -52.998611, 1687.000000, 0.614731, -0.528240, 0.748707, 0.029770, 0.069035, 0.077002
1424471578.654888, 0.774268, 10.157938, 28.628876, -53.218327, 1686.000000, 0.576244, -0.510518, 0.774268, 0.052607, 0.096361, 0.079702
1424471578.753209, 0.802032, 8.908543, 29.017966, -53.864409, 1684.000000, 0.536279, -0.497589, 0.802032, 0.086961, 0.096673, 0.080399
1424471578.830215, 0.830819, 7.613126, 29.278561, -57.082290, 1680.000000, 0.498543, -0.490710, 0.830819, 0.101145, 0.078697, 0.088184
1424471578.902963, 0.848112, 6.834965, 29.499568, -55.693444, 1681.000000, 0.478098, -0.490390, 0.848112, 0.097529, 0.070451, 0.095683
1424471578.976311, 0.865824, 6.037906, 29.696525, -54.603166, 1681.000000, 0.456662, -0.491834, 0.865824, 0.095187, 0.047752, 0.107248
1424471579.028702, 0.878646, 5.460948, 29.823670, -54.010819, 1681.000000, 0.443074, -0.495937, 0.878646, 0.087828, 0.027130, 0.115539
1424471579.148147, 0.886951, 5.087205, 30.093658, -44.433880, 1691.000000, 0.435534, -0.499745, 0.886951, 0.080322, 0.018487, 0.121141
1424471579.243023, 0.901155, 4.448019, 30.281242, -41.683049, 1693.000000, 0.423882, -0.508713, 0.901155, 0.073500, 0.001299, 0.135500
1424471579.342007, 0.907793, 4.149330, 30.463816, -36.084669, 1699.000000, 0.421057, -0.516032, 0.907793, 0.076204, -0.000964, 0.143657
1424471579.396550, 0.912328, 3.945262, 30.559378, -33.965436, 1701.000000, 0.421654, -0.522996, 0.912328, 0.068812, 0.010664, 0.151701
1424471579.489815, 0.915046, 3.822947, 30.717891, -28.715212, 1706.000000, 0.425179, -0.528203, 0.915046, 0.063417, 0.013218, 0.150531
1424471579.543168, 0.918340, 3.674710, 30.805063, -26.967521, 1708.000000, 0.433814, -0.536520, 0.918340, 0.055849, 0.020287, 0.138668
1424471579.662851, 0.920220, 3.590111, 30.995978, -21.266142, 1713.000000, 0.441327, -0.542619, 0.920220, 0.054743, 0.019324, 0.124085
1424471579.737387, 0.924691, 3.388922, 31.108213, -19.885150, 1715.000000, 0.459395, -0.556170, 0.924691, 0.049241, 0.014776, 0.079651
1424471579.817277, 0.928221, 3.230034, 31.222884, -18.120714, 1716.000000, 0.471945, -0.565822, 0.928221, 0.045877, 0.014693, 0.044254
1424471579.890905, 0.933118, 3.009680, 31.321390, -17.410519, 1717.000000, 0.485721, -0.576305, 0.933118, 0.039618, 0.009056, 0.009719
1424471579.964180, 0.937664, 2.805111, 31.412765, -16.676808, 1718.000000, 0.499728, -0.585597, 0.937664, 0.039053, 0.016646, -0.008926
1424471580.038931, 0.945595, 2.448215, 31.494083, -17.356538, 1717.000000, 0.515984, -0.596680, 0.945595, 0.037810, 0.014578, -0.030567
1424471580.112305, 0.952745, 2.126487, 31.563443, -17.668814, 1716.000000, 0.531016, -0.605512, 0.952745, 0.039543, 0.020321, -0.038051
1424471580.211713, 0.963047, 1.662898, 31.636899, -18.277364, 1715.000000, 0.548073, -0.616844, 0.963047, 0.038679, 0.020279, -0.049644
1424471580.294057, 0.978793, 0.954332, 31.671847, -21.563810, 1711.000000, 0.571884, -0.630433, 0.978793, 0.042104, 0.015845, -0.048177
1424471580.370495, 0.993381, 0.297855, 31.681959, -24.104815, 1708.000000, 0.591043, -0.642896, 0.993381, 0.042274, 0.015324, -0.053420
1424471580.444993, 1.007185, -0.323309, 31.671251, -26.033831, 1705.000000, 0.609302, -0.652561, 1.007185, 0.041837, 0.014324, -0.049579
1424471580.498097, 1.024132, -1.085940, 31.645608, -30.046363, 1701.000000, 0.630861, -0.664648, 1.024132, 0.039096, 0.012266, -0.046505
1424471580.574893, 1.035379, -1.592067, 31.591445, -29.945358, 1700.000000, 0.644996, -0.672291, 1.035379, 0.039159, 0.012413, -0.043888
1424471580.648623, 1.054554, -2.454914, 31.510731, -33.184633, 1696.000000, 0.668182, -0.683710, 1.054554, 0.043868, 0.002314, -0.035618
1424471580.701377, 1.070705, -3.181724, 31.436128, -36.143719, 1692.000000, 0.689049, -0.693654, 1.070705, 0.041237, 0.004184, -0.030500
1424471580.795549, 1.082196, -3.698820, 31.281358, -33.934487, 1694.000000, 0.704158, -0.700400, 1.082196, 0.033802, 0.002367, -0.027149
1424471580.848828, 1.105137, -4.731156, 31.169364, -39.496032, 1687.000000, 0.735135, -0.713382, 1.105137, 0.034444, -0.001112, -0.019058
1424471580.921966, 1.115621, -5.202936, 31.000224, -37.911845, 1688.000000, 0.750863, -0.719512, 1.115621, 0.030780, -0.001628, -0.015011
1424471581.039880, 1.129961, -5.848245, 30.693712, -34.706420, 1690.000000, 0.773476, -0.727722, 1.129961, 0.020366, -0.005900, -0.007858
1424471581.141418, 1.152469, -6.861125, 30.384229, -36.665087, 1687.000000, 0.808968, -0.738474, 1.152469, -0.001011, -0.034329, -0.001587
1424471581.216536, 1.167773, -7.549801, 30.132099, -37.276621, 1685.000000, 0.835745, -0.743893, 1.167773, -0.032847, -0.049989, 0.007393
1424471581.290655, 1.178986, -8.054384, 29.866680, -36.234045, 1686.000000, 0.853231, -0.746841, 1.178986, -0.051679, -0.063357, 0.001094
1424471581.341621, 1.186407, -8.388324, 29.676575, -35.507111, 1686.000000, 0.863813, -0.744531, 1.186407, -0.068847, -0.062132, 0.004866
1424471581.440937, 1.191366, -8.611455, 29.296626, -30.440700, 1690.000000, 0.869987, -0.742068, 1.191366, -0.065206, -0.059426, 0.006379
1424471581.514616, 1.197427, -8.884193, 29.005884, -28.382164, 1692.000000, 0.874664, -0.731422, 1.197427, -0.054472, -0.052183, 0.012883
1424471581.587834, 1.200044, -9.001995, 28.712746, -25.270272, 1694.000000, 0.872453, -0.719255, 1.200044, -0.054305, -0.040302, 0.017193
1424471581.687733, 1.200948, -9.042677, 28.311288, -20.583349, 1699.000000, 0.867215, -0.706459, 1.200948, -0.047318, -0.028470, 0.019134
1424471581.781884, 1.201499, -9.067458, 27.931877, -16.927902, 1702.000000, 0.854533, -0.686359, 1.201499, -0.040340, -0.009840, 0.023367
1424471581.882516, 1.200831, -9.037387, 27.527653, -13.253431, 1705.000000, 0.838229, -0.667088, 1.200831, -0.035771, 0.012912, 0.027591
1424471581.956405, 1.198564, -8.935398, 27.234215, -10.388267, 1708.000000, 0.815369, -0.646753, 1.198564, -0.022781, 0.035847, 0.031653
1424471582.030298, 1.197087, -8.868893, 26.942960, -8.261928, 1710.000000, 0.794572, -0.631837, 1.197087, -0.014309, 0.033846, 0.034289
1424471582.106311, 1.195406, -8.793285, 26.645896, -6.333851, 1712.000000, 0.774572, -0.621268, 1.195406, -0.007290, 0.039924, 0.038146
1424471582.183190, 1.194038, -8.731692, 26.347520, -4.812385, 1713.000000, 0.750663, -0.611352, 1.194038, -0.003735, 0.043815, 0.042007
1424471582.277900, 1.193846, -8.723067, 25.980407, -3.824337, 1713.000000, 0.727941, -0.604238, 1.193846, -0.003324, 0.047090, 0.044043
1424471582.331482, 1.195017, -8.775743, 25.771326, -3.882546, 1713.000000, 0.694732, -0.598415, 1.195017, -0.000203, 0.039650, 0.049430
1424471582.429891, 1.196154, -8.826938, 25.385337, -3.573610, 1713.000000, 0.673786, -0.596441, 1.196154, -0.006446, 0.039295, 0.052570
1424471582.481240, 1.199885, -8.994819, 25.179936, -4.698671, 1711.000000, 0.640682, -0.595491, 1.199885, -0.010955, 0.032816, 0.061289
1424471582.578768, 1.202505, -9.112736, 24.785026, -4.830517, 1711.000000, 0.621250, -0.596524, 1.202505, -0.015769, 0.032489, 0.060753
1424471582.674848, 1.208731, -9.392907, 24.383870, -6.392563, 1709.000000, 0.581594, -0.600884, 1.208731, -0.014634, 0.029609, 0.065455
1424471582.769488, 1.214975, -9.673870, 23.977236, -7.680833, 1707.000000, 0.536899, -0.606141, 1.214975, -0.018371, 0.025122, 0.069277
1424471582.871197, 1.222826, -10.027149, 23.523746, -9.257906, 1704.000000, 0.494064, -0.613010, 1.222826, -0.014472, 0.028229, 0.072349
1424471582.945765, 1.230390, -10.367549, 23.179963, -10.902238, 1702.000000, 0.446428, -0.622767, 1.230390, -0.001058, 0.009901, 0.077640
1424471583.020008, 1.237680, -10.695578, 22.827195, -12.199916, 1700.000000, 0.405573, -0.632132, 1.237680, -0.000493, -0.002519, 0.075893
1424471583.070482, 1.244438, -10.999715, 22.580365, -13.671426, 1698.000000, 0.367660, -0.639660, 1.244438, 0.000667, -0.009235, 0.078758
1424471583.134506, 1.248664, -11.189900, 22.262035, -13.611805, 1697.000000, 0.341704, -0.644638, 1.248664, 0.002932, -0.016384, 0.081157
1424471583.188627, 1.254378, -11.446999, 21.986718, -14.423899, 1696.000000, 0.302538, -0.651656, 1.254378, 0.003844, -0.019297, 0.078395
1424471583.261595, 1.257866, -11.603992, 21.610160, -13.713101, 1696.000000, 0.274935, -0.655870, 1.257866, 0.008155, -0.025100, 0.080530
1424471583.314757, 1.262733, -11.823001, 21.331000, -14.202797, 1695.000000, 0.235522, -0.661626, 1.262733, 0.014208, -0.027502, 0.080766
1424471583.411370, 1.266390, -11.987531, 20.816064, -12.919854, 1696.000000, 0.200745, -0.665538, 1.266390, 0.009072, -0.023630, 0.080918
1424471583.530940, 1.268996, -12.104840, 20.172959, -10.873782, 1697.000000, 0.150997, -0.669801, 1.268996, 0.023969, -0.031799, 0.085228
1424471583.616844, 1.271209, -12.204414, 19.706988, -9.890636, 1698.000000, 0.083526, -0.671544, 1.271209, 0.039240, -0.037682, 0.083433
1424471583.670335, 1.269152, -12.111846, 19.419136, -8.010031, 1699.000000, 0.037374, -0.670524, 1.269152, 0.046158, -0.034364, 0.086229
1424471583.720920, 1.268943, -12.102433, 19.146793, -7.115227, 1700.000000, 0.011684, -0.668592, 1.268943, 0.047098, -0.040591, 0.086364
1424471583.840122, 1.268159, -12.067142, 18.507765, -5.105954, 1701.000000, -0.012262, -0.665281, 1.268159, 0.056936, -0.045203, 0.089947
1424471583.914531, 1.262444, -11.809988, 18.117201, -2.060284, 1704.000000, -0.064634, -0.653634, 1.262444, 0.050430, -0.040416, 0.102020
1424471583.989022, 1.258678, -11.640509, 17.731812, -0.246850, 1706.000000, -0.097598, -0.641957, 1.258678, 0.061935, -0.046247, 0.109467
1424471584.063056, 1.254993, -11.474664, 17.354316, 1.263865, 1707.000000, -0.123919, -0.629988, 1.254993, 0.061734, -0.053791, 0.115074
1424471584.162704, 1.251743, -11.328427, 16.852638, 2.311889, 1708.000000, -0.149488, -0.615386, 1.251743, 0.057333, -0.047901, 0.126177
1424471584.237836, 1.244660, -11.009687, 16.484969, 4.797704, 1710.000000, -0.176761, -0.591851, 1.244660, 0.067331, -0.056416, 0.134883
1424471584.311411, 1.240463, -10.820854, 16.130857, 5.769703, 1711.000000, -0.200925, -0.569412, 1.240463, 0.056553, -0.043064, 0.148606
1424471584.387086, 1.236628, -10.648281, 15.772829, 6.430705, 1712.000000, -0.218480, -0.548014, 1.236628, 0.054433, -0.038856, 0.158280
1424471584.464973, 1.233098, -10.489424, 15.409727, 6.841039, 1712.000000, -0.236429, -0.521463, 1.233098, 0.055333, -0.041381, 0.173154
1424471584.558503, 1.230078, -10.353516, 14.979431, 6.769689, 1711.000000, -0.251782, -0.496977, 1.230078, 0.057454, -0.041237, 0.180552
1424471584.635640, 1.226136, -10.176141, 14.630461, 7.301668, 1712.000000, -0.269983, -0.461456, 1.226136, 0.059308, -0.042172, 0.183010
1424471584.709542, 1.224824, -10.117085, 14.298234, 6.747633, 1711.000000, -0.280849, -0.433609, 1.224824, 0.063812, -0.043579, 0.192340
1424471584.783363, 1.223990, -10.079536, 13.968427, 6.087868, 1710.000000, -0.292543, -0.401198, 1.223990, 0.055889, -0.037302, 0.197642
1424471584.884570, 1.223624, -10.063102, 13.514912, 4.999312, 1708.000000, -0.300330, -0.367883, 1.223624, 0.055012, -0.023146, 0.193090
1424471584.976943, 1.224457, -10.100587, 13.100199, 3.742425, 1707.000000, -0.308053, -0.330512, 1.224457, 0.048582, -0.014512, 0.165015
1424471585.097224, 1.226508, -10.192844, 12.555268, 2.022014, 1704.000000, -0.314472, -0.288902, 1.226508, 0.054166, -0.012604, 0.125640
1424471585.172744, 1.229957, -10.348062, 12.208033, 0.336979, 1702.000000, -0.318645, -0.239618, 1.229957, 0.042287, 0.011385, 0.092797
1424471585.226694, 1.232025, -10.441110, 11.957571, -0.526491, 1701.000000, -0.322577, -0.213128, 1.232025, 0.050666, 0.031447, 0.067869
1424471585.300214, 1.233412, -10.503534, 11.614237, -1.003932, 1700.000000, -0.323571, -0.191625, 1.233412, 0.047002, 0.052887, 0.049533
1424471585.373971, 1.234920, -10.571416, 11.267673, -1.459217, 1699.000000, -0.325225, -0.168841, 1.234920, 0.053547, 0.074919, 0.033855
1424471585.493540, 1.234908, -10.570865, 10.706149, -1.105514, 1699.000000, -0.323634, -0.147309, 1.234908, 0.064217, 0.103407, 0.028557
1424471585.568307, 1.232448, -10.460182, 10.358573, 0.043643, 1700.000000, -0.319694, -0.128807, 1.232448, 0.073284, 0.139069, 0.013106
1424471585.622023, 1.229965, -10.348438, 10.111319, 1.032230, 1701.000000, -0.316298, -0.126061, 1.229965, 0.075711, 0.137170, 0.010591
1424471585.715456, 1.226546, -10.194592, 9.688058, 2.206892, 1702.000000, -0.312257, -0.127698, 1.226546, 0.077070, 0.132887, 0.012229
1424471585.768969, 1.217598, -9.791894, 9.455250, 5.550318, 1705.000000, -0.301460, -0.139805, 1.217598, 0.079549, 0.117891, 0.018032
1424471585.822829, 1.213022, -9.586009, 9.225803, 6.782580, 1706.000000, -0.293606, -0.150088, 1.213022, 0.081291, 0.097754, 0.025447
1424471585.920479, 1.205396, -9.242832, 8.824611, 8.508227, 1708.000000, -0.284640, -0.165882, 1.205396, 0.076938, 0.092458, 0.028234
1424471585.974259, 1.194554, -8.754913, 8.615384, 11.930299, 1712.000000, -0.268460, -0.194344, 1.194554, 0.073907, 0.072300, 0.041521
1424471586.047903, 1.186776, -8.404934, 8.340341, 13.284388, 1713.000000, -0.256522, -0.217012, 1.186776, 0.069693, 0.062988, 0.045297
1424471586.101016, 1.177391, -7.982573, 8.151789, 15.626684, 1716.000000, -0.240619, -0.245442, 1.177391, 0.072947, 0.062879, 0.060647
1424471586.197674, 1.170349, -7.665688, 7.822566, 15.423361, 1716.000000, -0.227173, -0.267765, 1.170349, 0.073106, 0.060379, 0.064731
1424471586.291917, 1.156626, -7.048160, 7.527287, 18.004797, 1718.000000, -0.199032, -0.315420, 1.156626, 0.067064, 0.036817, 0.080380
