%Time, velx_inertial_send, Px, Ix, vely_inertial_send, Py, Iy, x, y, z, phi, theta, psi, target_x, target_y
1424742656.192467, -0.114173, -0.114173, 0.000000, 0.200000, 0.290326, 0.000000, 0.570863, -1.451631, 0.997815, -0.020012, -0.005342, 0.037938, 0.000000, 0.000000
1424742656.270513, -0.122150, -0.119810, -0.002340, 0.200000, 0.289058, 0.000000, 0.599052, -1.445291, 0.997301, -0.016348, 0.009194, 0.037701, 0.000000, 0.000000
1424742656.345258, -0.128198, -0.123549, -0.004649, 0.200000, 0.288180, 0.000000, 0.617745, -1.440899, 0.998578, -0.014625, 0.001827, 0.040671, 0.000000, 0.000000
1424742656.442849, -0.135133, -0.127384, -0.007749, 0.200000, 0.287029, 0.000000, 0.636921, -1.435147, 0.997990, -0.031962, 0.000195, 0.037392, 0.000000, 0.000000
1424742656.497861, -0.140994, -0.131430, -0.009564, 0.200000, 0.285511, 0.000000, 0.657152, -1.427553, 0.997479, -0.067210, -0.007920, 0.040283, 0.000000, 0.000000
1424742656.575085, -0.145595, -0.133461, -0.012134, 0.200000, 0.284411, 0.000000, 0.667304, -1.422053, 0.997802, -0.109644, -0.012327, 0.040286, 0.000000, 0.000000
1424742656.628993, -0.149188, -0.135224, -0.013964, 0.200000, 0.282651, 0.000000, 0.676121, -1.413253, 0.997258, -0.157681, -0.012315, 0.045080, 0.000000, 0.000000
1424742656.723985, -0.152519, -0.135349, -0.017170, 0.200000, 0.281435, 0.000000, 0.676747, -1.407173, 0.995191, -0.178233, -0.005976, 0.045437, 0.000000, 0.000000
1424742656.798867, -0.153248, -0.133570, -0.019678, 0.200000, 0.279160, 0.000000, 0.667848, -1.395802, 0.987469, -0.196203, 0.002726, 0.054611, 0.000000, 0.000000
1424742656.852498, -0.151957, -0.130529, -0.021427, 0.200000, 0.277332, 0.000000, 0.652647, -1.386660, 0.979170, -0.174686, 0.006072, 0.049603, 0.000000, 0.000000
1424742656.947765, -0.151152, -0.126708, -0.024445, 0.200000, 0.275730, 0.000000, 0.633538, -1.378651, 0.970557, -0.158178, -0.000040, 0.051889, 0.000000, 0.000000
1424742657.001718, -0.145242, -0.119188, -0.026053, 0.200000, 0.273390, 0.000000, 0.595942, -1.366950, 0.955323, -0.119460, -0.004767, 0.053291, 0.000000, 0.000000
1424742657.102945, -0.143456, -0.114505, -0.028950, 0.200000, 0.272034, 0.000000, 0.572527, -1.360171, 0.945807, -0.085856, -0.008689, 0.052939, 0.000000, 0.000000
1424742657.177627, -0.133899, -0.103026, -0.030874, 0.200000, 0.268824, 0.000000, 0.515128, -1.344119, 0.925644, -0.033396, -0.014283, 0.053030, 0.000000, 0.000000
1424742657.249111, -0.128199, -0.095616, -0.032583, 0.200000, 0.266238, 0.000000, 0.478079, -1.331192, 0.911256, 0.017715, -0.017580, 0.056897, 0.000000, 0.000000
1424742657.303093, -0.122440, -0.088666, -0.033774, 0.200000, 0.263557, 0.000000, 0.443328, -1.317787, 0.899538, 0.062726, -0.030834, 0.058804, 0.000000, 0.000000
1424742657.377469, -0.118551, -0.083224, -0.035326, 0.200000, 0.260897, 0.000000, 0.416122, -1.304487, 0.890231, 0.074868, -0.027937, 0.060362, 0.000000, 0.000000
1424742657.431117, -0.114222, -0.077852, -0.036370, 0.200000, 0.257431, 0.000000, 0.389258, -1.287157, 0.882291, 0.076345, -0.040119, 0.064119, 0.000000, 0.000000
1424742657.484965, -0.111944, -0.074570, -0.037375, 0.200000, 0.254791, 0.000000, 0.372849, -1.273957, 0.876599, 0.065408, -0.029999, 0.065068, 0.000000, 0.000000
1424742657.559694, -0.109788, -0.071089, -0.038698, 0.200000, 0.251262, 0.000000, 0.355447, -1.256310, 0.871419, 0.053591, -0.028262, 0.069101, 0.000000, 0.000000
1424742657.660344, -0.107682, -0.067287, -0.040395, 0.200000, 0.246222, 0.000000, 0.336433, -1.231110, 0.866949, 0.031242, -0.027396, 0.067880, 0.000000, 0.000000
1424742657.715813, -0.105345, -0.064061, -0.041284, 0.200000, 0.240040, 0.000000, 0.320307, -1.200198, 0.862818, 0.015268, -0.028580, 0.064001, 0.000000, 0.000000
1424742657.803230, -0.104691, -0.062127, -0.042564, 0.200000, 0.235761, 0.000000, 0.310636, -1.178806, 0.861026, 0.010325, -0.028471, 0.061876, 0.000000, 0.000000
1424742657.882762, -0.103289, -0.059469, -0.043820, 0.200000, 0.228841, 0.000000, 0.297345, -1.144203, 0.858233, 0.002462, -0.015258, 0.056825, 0.000000, 0.000000
1424742657.957358, -0.102515, -0.057620, -0.044895, 0.200000, 0.222398, 0.000000, 0.288099, -1.111990, 0.859057, 0.001693, -0.028088, 0.054812, 0.000000, 0.000000
1424742658.052779, -0.102399, -0.056166, -0.046234, 0.200000, 0.216629, 0.000000, 0.280828, -1.083145, 0.860200, -0.005605, -0.024492, 0.046978, 0.000000, 0.000000
1424742658.150302, -0.101887, -0.054328, -0.047559, 0.200000, 0.208154, 0.000000, 0.271638, -1.040771, 0.862642, -0.015778, -0.016477, 0.028186, 0.000000, 0.000000
1424742658.223256, -0.101206, -0.052689, -0.048516, 0.200000, 0.200093, 0.000000, 0.263446, -1.000465, 0.865750, -0.013373, -0.021063, 0.014543, 0.000000, 0.000000
1424742658.277045, -0.100506, -0.051296, -0.049210, 0.195304, 0.192698, 0.002605, 0.256480, -0.963491, 0.868213, -0.013691, -0.012314, 0.003691, 0.000000, 0.000000
1424742658.375686, -0.100908, -0.050454, -0.050454, 0.195125, 0.187887, 0.007238, 0.252268, -0.939433, 0.869827, -0.013506, -0.011019, -0.002873, 0.000000, 0.000000
1424742658.429550, -0.099975, -0.048863, -0.051112, 0.187913, 0.178274, 0.009639, 0.244314, -0.891371, 0.875147, -0.007061, -0.009720, -0.011976, 0.000000, 0.000000
1424742658.526317, -0.100511, -0.048232, -0.052279, 0.187215, 0.173382, 0.013833, 0.241159, -0.866910, 0.877120, -0.005126, 0.000566, -0.012962, 0.000000, 0.000000
1424742658.578327, -0.099799, -0.046910, -0.052889, 0.179948, 0.163982, 0.015966, 0.234549, -0.819911, 0.880050, -0.005793, 0.043224, -0.017355, 0.000000, 0.000000
1424742658.651926, -0.100031, -0.046290, -0.053741, 0.178499, 0.159597, 0.018902, 0.231450, -0.797986, 0.881564, -0.004185, 0.061001, -0.020770, 0.000000, 0.000000
1424742658.706092, -0.099872, -0.045519, -0.054354, 0.174010, 0.153047, 0.020963, 0.227595, -0.765234, 0.882239, -0.009099, 0.079743, -0.024100, 0.000000, 0.000000
1424742658.759455, -0.100082, -0.045124, -0.054959, 0.172519, 0.149550, 0.022968, 0.225619, -0.747752, 0.881518, -0.015073, 0.082615, -0.026841, 0.000000, 0.000000
1424742658.856310, -0.100687, -0.044647, -0.056040, 0.172776, 0.146266, 0.026510, 0.223237, -0.731328, 0.880246, -0.013567, 0.076359, -0.027874, 0.000000, 0.000000
1424742658.931666, -0.100731, -0.043864, -0.056866, 0.170095, 0.140929, 0.029166, 0.219322, -0.704645, 0.875081, -0.025173, 0.061174, -0.028178, 0.000000, 0.000000
1424742659.008686, -0.100706, -0.043011, -0.057694, 0.169272, 0.137460, 0.031812, 0.215056, -0.687300, 0.869478, -0.024355, 0.046294, -0.029417, 0.000000, 0.000000
1424742659.107192, -0.100975, -0.042240, -0.058734, 0.170092, 0.134957, 0.035135, 0.211202, -0.674784, 0.863568, -0.030476, 0.034679, -0.029303, 0.000000, 0.000000
1424742659.159938, -0.099919, -0.040648, -0.059270, 0.168757, 0.131883, 0.036874, 0.203241, -0.659415, 0.854096, -0.042471, 0.020530, -0.025912, 0.000000, 0.000000
1424742659.233701, -0.099836, -0.039833, -0.060003, 0.169819, 0.130545, 0.039274, 0.199166, -0.652726, 0.848288, -0.047266, 0.020393, -0.026934, 0.000000, 0.000000
1424742659.287464, -0.098472, -0.037957, -0.060515, 0.169609, 0.128600, 0.041009, 0.189785, -0.642998, 0.838495, -0.047378, 0.019324, -0.023643, 0.000000, 0.000000
1424742659.384297, -0.098024, -0.036625, -0.061399, 0.171581, 0.127493, 0.044088, 0.183124, -0.637465, 0.832117, -0.045318, 0.015644, -0.022700, 0.000000, 0.000000
1424742659.438466, -0.095389, -0.033533, -0.061855, 0.171450, 0.125653, 0.045797, 0.167666, -0.628265, 0.820415, -0.049179, 0.012301, -0.018043, 0.000000, 0.000000
1424742659.490194, -0.093849, -0.031585, -0.062264, 0.172072, 0.124662, 0.047410, 0.157926, -0.623310, 0.814987, -0.048255, 0.010345, -0.018107, 0.000000, 0.000000
1424742659.564744, -0.092386, -0.029570, -0.062815, 0.173622, 0.123903, 0.049719, 0.147852, -0.619515, 0.810475, -0.049232, 0.009342, -0.018351, 0.000000, 0.000000
1424742659.617824, -0.089051, -0.025893, -0.063159, 0.174185, 0.122837, 0.051348, 0.129465, -0.614186, 0.804179, -0.047687, 0.009052, -0.020508, 0.000000, 0.000000
1424742659.714727, -0.087136, -0.023410, -0.063726, 0.176443, 0.122136, 0.054307, 0.117052, -0.610681, 0.801692, -0.050830, 0.007871, -0.023062, 0.000000, 0.000000
1424742659.813923, -0.081902, -0.017738, -0.064165, 0.177962, 0.120669, 0.057293, 0.088689, -0.603345, 0.797602, -0.044765, -0.005069, -0.025470, 0.000000, 0.000000
1424742659.888448, -0.076106, -0.011723, -0.064384, 0.178751, 0.119230, 0.059521, 0.058614, -0.596152, 0.794954, -0.026521, -0.011900, -0.026489, 0.000000, 0.000000
1424742659.942950, -0.071808, -0.007325, -0.064483, 0.179249, 0.118121, 0.061128, 0.036624, -0.590603, 0.795500, -0.021702, -0.018227, -0.025073, 0.000000, 0.000000
1424742660.016651, -0.067903, -0.003358, -0.064545, 0.180216, 0.116931, 0.063285, 0.016790, -0.584655, 0.797351, -0.031375, -0.018093, -0.025806, 0.000000, 0.000000
1424742660.070317, -0.063236, 0.001292, -0.064528, 0.180341, 0.115507, 0.064834, -0.006460, -0.577536, 0.800817, -0.033811, -0.017674, -0.026370, 0.000000, 0.000000
1424742660.169928, -0.059674, 0.004736, -0.064410, 0.182013, 0.114332, 0.067681, -0.023678, -0.571658, 0.802863, -0.022048, -0.016529, -0.025998, 0.000000, 0.000000
1424742660.265188, -0.052557, 0.011577, -0.064134, 0.182134, 0.111791, 0.070343, -0.057886, -0.558955, 0.807716, 0.002433, -0.016157, -0.023823, 0.000000, 0.000000
1424742660.340057, -0.045922, 0.017877, -0.063800, 0.181429, 0.109045, 0.072385, -0.089387, -0.545223, 0.814647, 0.017142, -0.015642, -0.023828, 0.000000, 0.000000
1424742660.370898, -0.041545, 0.022084, -0.063629, 0.180051, 0.106842, 0.073209, -0.110420, -0.534208, 0.820321, 0.018703, -0.016679, -0.019644, 0.000000, 0.000000
1424742660.490270, -0.039160, 0.023760, -0.062920, 0.182191, 0.105824, 0.076367, -0.118801, -0.529118, 0.823237, 0.017824, -0.022467, -0.019685, 0.000000, 0.000000
1424742660.565911, -0.032487, 0.029869, -0.062355, 0.179803, 0.101517, 0.078287, -0.149343, -0.507583, 0.833786, 0.030878, -0.026066, -0.012108, 0.000000, 0.000000
1424742660.620027, -0.028847, 0.033061, -0.061908, 0.177960, 0.098343, 0.079617, -0.165307, -0.491715, 0.837267, 0.085566, -0.028796, -0.009665, 0.000000, 0.000000
1424742660.694137, -0.026646, 0.034621, -0.061267, 0.177543, 0.096146, 0.081398, -0.173105, -0.480728, 0.839913, 0.099852, -0.031762, -0.005756, 0.000000, 0.000000
1424742660.749025, -0.024573, 0.036197, -0.060770, 0.175109, 0.092442, 0.082667, -0.180983, -0.462211, 0.846849, 0.076209, -0.033967, -0.003886, 0.000000, 0.000000
1424742660.802437, -0.023468, 0.036811, -0.060279, 0.173791, 0.089924, 0.083867, -0.184055, -0.449622, 0.850170, 0.057442, -0.031475, -0.004036, 0.000000, 0.000000
1424742660.876538, -0.022702, 0.036893, -0.059595, 0.172215, 0.086741, 0.085474, -0.184466, -0.433703, 0.853352, 0.037729, -0.029571, -0.002398, 0.000000, 0.000000
1424742660.931010, -0.022464, 0.036632, -0.059096, 0.169490, 0.082887, 0.086603, -0.183161, -0.414434, 0.857011, 0.007373, -0.025983, 0.001557, 0.000000, 0.000000
1424742660.984485, -0.022098, 0.036510, -0.058608, 0.167611, 0.079940, 0.087672, -0.182549, -0.399699, 0.858292, -0.005806, -0.024003, 0.001331, 0.000000, 0.000000
1424742661.058966, -0.021943, 0.035995, -0.057939, 0.165506, 0.076413, 0.089093, -0.179977, -0.382067, 0.858170, -0.008432, -0.025865, 0.003838, 0.000000, 0.000000
1424742661.113562, -0.022070, 0.035387, -0.057457, 0.162100, 0.072027, 0.090073, -0.176935, -0.360136, 0.856887, -0.013804, -0.027993, 0.004843, 0.000000, 0.000000
1424742661.234055, -0.021340, 0.035059, -0.056399, 0.160298, 0.068169, 0.092130, -0.175296, -0.340844, 0.854988, -0.014809, -0.029236, 0.007061, 0.000000, 0.000000
1424742661.309156, -0.021505, 0.034251, -0.055756, 0.153237, 0.059981, 0.093256, -0.171253, -0.299905, 0.848416, -0.022042, -0.028786, 0.008853, 0.000000, 0.000000
1424742661.406591, -0.020786, 0.034138, -0.054925, 0.149380, 0.054789, 0.094591, -0.170692, -0.273946, 0.843517, -0.035627, -0.026820, 0.009151, 0.000000, 0.000000
1424742661.461018, -0.020248, 0.034210, -0.054459, 0.142554, 0.047319, 0.095235, -0.171052, -0.236596, 0.834684, -0.041861, -0.023450, 0.008122, 0.000000, 0.000000
1424742661.515248, -0.019488, 0.034504, -0.053991, 0.139269, 0.043446, 0.095824, -0.172518, -0.217228, 0.829104, -0.043122, -0.015992, 0.004609, 0.000000, 0.000000
1424742661.589288, -0.018344, 0.034999, -0.053343, 0.135394, 0.038851, 0.096543, -0.174996, -0.194256, 0.822161, -0.036988, -0.008256, 0.003418, 0.000000, 0.000000
1424742661.643400, -0.016984, 0.035876, -0.052860, 0.130374, 0.033381, 0.096992, -0.179382, -0.166907, 0.814200, -0.035496, 0.000540, 0.000065, 0.000000, 0.000000
1424742661.717782, -0.015382, 0.036792, -0.052174, 0.126292, 0.028764, 0.097529, -0.183961, -0.143818, 0.808388, -0.029899, 0.006651, 0.000770, 0.000000, 0.000000
1424742661.792397, -0.013400, 0.038065, -0.051465, 0.121559, 0.023590, 0.097968, -0.190326, -0.117952, 0.801377, -0.032668, 0.005398, -0.001416, 0.000000, 0.000000
1424742661.870042, -0.010920, 0.039772, -0.050692, 0.116073, 0.017760, 0.098313, -0.198860, -0.088799, 0.793577, -0.027127, -0.007295, -0.011827, 0.000000, 0.000000
1424742661.924613, -0.008568, 0.041557, -0.050125, 0.111293, 0.012805, 0.098488, -0.207786, -0.064024, 0.788478, -0.021798, -0.014039, -0.016837, 0.000000, 0.000000
1424742661.999024, -0.005877, 0.043440, -0.049317, 0.107089, 0.008444, 0.098645, -0.217201, -0.042219, 0.785886, -0.025872, -0.013773, -0.015806, 0.000000, 0.000000
1424742662.095505, -0.002351, 0.045859, -0.048211, 0.102153, 0.003425, 0.098728, -0.229297, -0.017126, 0.784185, -0.033565, -0.010001, -0.018836, 0.000000, 0.000000
1424742662.148441, 0.002110, 0.049664, -0.047554, 0.094902, -0.003776, 0.098678, -0.248319, 0.018882, 0.783993, -0.034582, -0.007515, -0.020485, 0.000000, 0.000000
1424742662.246162, 0.005487, 0.051776, -0.046289, 0.091135, -0.007363, 0.098498, -0.258880, 0.036817, 0.785282, -0.034698, -0.008822, -0.023614, 0.000000, 0.000000
1424742662.344110, 0.011425, 0.056338, -0.044912, 0.083637, -0.014507, 0.098144, -0.281688, 0.072534, 0.790746, -0.027835, -0.006754, -0.021550, 0.000000, 0.000000
1424742662.397410, 0.016832, 0.060929, -0.044097, 0.076448, -0.021409, 0.097857, -0.304647, 0.107044, 0.796932, 0.008412, 0.012671, -0.025983, 0.000000, 0.000000
1424742662.491541, 0.020696, 0.063303, -0.042607, 0.072471, -0.024803, 0.097273, -0.316517, 0.124013, 0.801225, 0.017388, 0.023745, -0.024495, 0.000000, 0.000000
1424742662.613024, 0.026788, 0.067355, -0.040566, 0.065865, -0.030485, 0.096350, -0.336773, 0.152423, 0.811065, 0.010654, 0.027988, -0.023042, 0.000000, 0.000000
1424742662.667604, 0.032460, 0.072039, -0.039580, 0.058229, -0.037606, 0.095835, -0.360196, 0.188029, 0.825605, 0.044933, 0.026811, -0.017400, 0.000000, 0.000000
1424742662.744182, 0.035423, 0.073598, -0.038175, 0.054961, -0.040108, 0.095069, -0.367989, 0.200539, 0.831929, 0.045056, 0.026833, -0.016462, 0.000000, 0.000000
1424742662.822879, 0.038741, 0.075512, -0.036770, 0.050600, -0.043657, 0.094257, -0.377559, 0.218286, 0.842367, 0.035602, 0.023376, -0.014482, 0.000000, 0.000000
1424742662.877106, 0.041196, 0.076838, -0.035642, 0.046711, -0.046858, 0.093569, -0.384189, 0.234292, 0.851535, 0.038061, 0.025046, -0.014190, 0.000000, 0.000000
1424742662.929262, 0.042848, 0.077479, -0.034631, 0.044337, -0.048597, 0.092935, -0.387395, 0.242986, 0.856921, 0.042524, 0.026690, -0.013646, 0.000000, 0.000000
1424742663.003254, 0.044510, 0.077708, -0.033198, 0.041853, -0.050157, 0.092010, -0.388538, 0.250786, 0.861751, 0.041844, 0.027029, -0.013000, 0.000000, 0.000000
1424742663.057533, 0.045647, 0.077785, -0.032138, 0.038952, -0.052344, 0.091296, -0.388925, 0.261722, 0.868657, 0.039784, 0.025527, -0.010204, 0.000000, 0.000000
1424742663.155520, 0.047447, 0.077681, -0.030235, 0.036354, -0.053629, 0.089983, -0.388407, 0.268144, 0.871773, 0.039950, 0.021324, -0.008910, 0.000000, 0.000000
1424742663.253985, 0.048540, 0.076886, -0.028347, 0.032770, -0.055842, 0.088611, -0.384431, 0.279208, 0.876873, 0.025108, 0.015449, -0.007721, 0.000000, 0.000000
1424742663.349652, 0.048789, 0.075330, -0.026541, 0.029729, -0.057504, 0.087233, -0.376651, 0.287520, 0.878850, 0.008589, 0.007736, -0.010115, 0.000000, 0.000000
1424742663.403756, 0.048174, 0.073718, -0.025544, 0.027713, -0.058725, 0.086438, -0.368588, 0.293627, 0.878618, -0.001370, 0.004067, -0.009457, 0.000000, 0.000000
1424742663.503626, 0.048882, 0.072612, -0.023730, 0.025449, -0.059504, 0.084953, -0.363061, 0.297519, 0.877125, -0.003354, -0.003249, -0.008247, 0.000000, 0.000000
1424742663.578157, 0.048560, 0.070968, -0.022408, 0.023144, -0.060679, 0.083822, -0.354840, 0.303393, 0.874596, -0.007334, -0.007535, -0.004577, 0.000000, 0.000000
1424742663.652793, 0.048232, 0.069347, -0.021115, 0.021134, -0.061540, 0.082674, -0.346734, 0.307699, 0.870449, -0.030766, -0.008807, -0.002992, 0.000000, 0.000000
1424742663.707164, 0.047956, 0.068145, -0.020189, 0.019294, -0.062530, 0.081825, -0.340726, 0.312652, 0.866348, -0.039802, -0.013052, -0.000935, 0.000000, 0.000000
1424742663.806764, 0.049196, 0.067698, -0.018503, 0.016966, -0.063282, 0.080248, -0.338492, 0.316410, 0.862945, -0.040255, -0.014431, -0.000746, 0.000000, 0.000000
1424742663.881762, 0.049824, 0.067069, -0.017245, 0.014290, -0.064745, 0.079034, -0.335347, 0.323724, 0.856307, -0.034283, -0.016123, 0.000523, 0.000000, 0.000000
1424742663.956744, 0.051015, 0.067005, -0.015989, 0.011713, -0.066082, 0.077796, -0.335024, 0.330412, 0.852006, -0.031047, -0.015120, 0.000254, 0.000000, 0.000000
1424742664.056278, 0.052805, 0.067124, -0.014319, 0.008984, -0.067141, 0.076125, -0.335620, 0.335705, 0.848795, -0.031018, -0.015164, -0.001086, 0.000000, 0.000000
1424742664.131388, 0.054868, 0.067912, -0.013044, 0.005486, -0.069337, 0.074823, -0.339558, 0.346685, 0.843855, -0.030261, -0.014263, -0.003314, 0.000000, 0.000000
1424742664.251733, 0.057691, 0.068669, -0.010978, 0.001878, -0.070815, 0.072693, -0.343346, 0.354075, 0.841869, -0.030728, -0.014886, -0.003146, 0.000000, 0.000000
1424742664.307547, 0.060828, 0.070819, -0.009991, -0.002258, -0.073920, 0.071662, -0.354094, 0.369601, 0.841976, -0.035551, -0.016005, -0.007531, 0.000000, 0.000000
1424742664.361498, 0.062875, 0.071896, -0.009020, -0.004514, -0.075162, 0.070648, -0.359478, 0.375808, 0.843512, -0.030110, -0.014842, -0.008217, 0.000000, 0.000000
1424742664.435460, 0.065401, 0.073069, -0.007669, -0.007192, -0.076426, 0.069234, -0.365346, 0.382131, 0.844795, -0.033768, -0.013185, -0.009382, 0.000000, 0.000000
1424742664.532356, 0.069394, 0.075240, -0.005846, -0.011208, -0.078540, 0.067332, -0.376202, 0.392700, 0.848563, -0.028311, -0.007027, -0.011782, 0.000000, 0.000000
1424742664.617159, 0.073938, 0.078129, -0.004191, -0.015479, -0.081092, 0.065614, -0.390643, 0.405462, 0.855419, -0.017770, -0.004536, -0.016730, 0.000000, 0.000000
1424742664.671248, 0.077786, 0.080882, -0.003096, -0.018785, -0.083271, 0.064487, -0.404411, 0.416357, 0.862196, -0.024660, -0.006169, -0.020527, 0.000000, 0.000000
1424742664.748960, 0.081037, 0.082530, -0.001493, -0.021662, -0.084507, 0.062845, -0.412649, 0.422533, 0.867164, -0.022342, -0.006787, -0.021095, 0.000000, 0.000000
1424742664.823412, 0.085487, 0.085391, 0.000097, -0.025354, -0.086587, 0.061233, -0.426953, 0.432934, 0.874611, -0.016381, -0.011711, -0.021041, 0.000000, 0.000000
1424742664.900222, 0.090043, 0.088252, 0.001791, -0.029232, -0.088761, 0.059529, -0.441258, 0.443804, 0.881137, 0.004308, -0.015167, -0.020326, 0.000000, 0.000000
1424742664.954989, 0.093696, 0.090664, 0.003032, -0.032475, -0.090761, 0.058286, -0.453319, 0.453805, 0.887102, 0.025363, -0.019252, -0.020303, 0.000000, 0.000000
1424742665.028892, 0.097260, 0.092519, 0.004741, -0.035914, -0.092492, 0.056578, -0.462597, 0.462460, 0.892829, 0.037666, -0.021770, -0.016946, 0.000000, 0.000000
1424742665.150086, 0.101781, 0.094185, 0.007596, -0.040835, -0.094547, 0.053713, -0.470926, 0.472736, 0.900199, 0.038618, -0.021932, -0.016358, 0.000000, 0.000000
