%Time, alt, RC_P, RC_I, RC_D, rc_T_send, x, y, z, phi, theta, psi
1423442010.363410, 0.161326, 37.740350, 0.000000, -0.000000, 1738.000000, 0.058009, 0.003922, 0.161326, 0.006238, -0.021462, -1.656905
1423442010.376335, 0.161769, 37.720401, 0.000000, -0.177320, 1738.000000, 0.057561, 0.004022, 0.161769, 0.010475, -0.017280, -1.656416
1423442010.393077, 0.161356, 37.738989, 0.000000, -0.006155, 1738.000000, 0.057847, 0.004046, 0.161356, 0.009005, -0.021507, -1.658100
1423442010.403964, 0.161640, 37.726204, 0.000000, -0.119668, 1738.000000, 0.057643, 0.004138, 0.161640, 0.010217, -0.019842, -1.656749
1423442010.414841, 0.161816, 37.718262, 0.000000, -0.187671, 1738.000000, 0.057492, 0.004273, 0.161816, 0.011288, -0.016549, -1.656481
1423442010.431297, 0.161340, 37.739697, 0.000000, 0.009060, 1738.000000, 0.057657, 0.003981, 0.161340, 0.010795, -0.016997, -1.658475
1423442010.443200, 0.161614, 37.727360, 0.000000, -0.100821, 1738.000000, 0.057780, 0.004155, 0.161614, 0.009902, -0.020424, -1.657285
1423442010.501327, 0.161693, 37.723825, 0.000000, -0.120518, 1738.000000, 0.057289, 0.004365, 0.161693, 0.011014, -0.017954, -1.654610
1423442010.554036, 0.161771, 37.720316, 0.000000, -0.139009, 1738.000000, 0.057806, 0.004159, 0.161771, 0.011594, -0.020999, -1.658444
1423442010.624849, 0.162042, 37.708110, 0.000000, -0.227814, 1737.000000, 0.057661, 0.004192, 0.162042, 0.009666, -0.019742, -1.658838
1423442010.678605, 0.163372, 37.648271, 0.000000, -0.735238, 1737.000000, 0.057872, 0.005126, 0.163372, 0.009287, -0.025919, -1.657713
1423442010.821974, 0.166129, 37.524205, 0.000000, -1.627212, 1736.000000, 0.058130, 0.006555, 0.166129, 0.010160, -0.032589, -1.657826
1423442010.873608, 0.184520, 36.696607, 0.000000, -8.815589, 1728.000000, 0.058934, 0.014444, 0.184520, 0.004924, -0.056067, -1.663935
1423442010.945706, 0.194828, 36.232725, 0.000000, -11.667577, 1725.000000, 0.059265, 0.018992, 0.194828, 0.005007, -0.054196, -1.667420
1423442010.999115, 0.215057, 35.322455, 0.838178, -18.512985, 1718.000000, 0.059280, 0.029207, 0.215057, 0.008501, -0.054586, -1.673984
1423442011.049856, 0.228576, 34.714095, 1.620909, -22.042192, 1714.000000, 0.059855, 0.036991, 0.228576, 0.008593, -0.060397, -1.679167
1423442011.123217, 0.242595, 34.083232, 2.732600, -24.414596, 1712.000000, 0.060025, 0.046063, 0.242595, 0.009984, -0.060642, -1.682286
1423442011.175978, 0.262900, 33.169492, 3.510090, -29.961487, 1707.000000, 0.060163, 0.061018, 0.262900, 0.008643, -0.059993, -1.687878
1423442011.228734, 0.279496, 32.422699, 4.270125, -33.439118, 1703.000000, 0.059969, 0.075391, 0.279496, -0.002245, -0.062837, -1.692198
1423442011.369158, 0.293604, 31.787821, 6.254728, -29.687832, 1708.000000, 0.059214, 0.088719, 0.293604, -0.000011, -0.053987, -1.696278
1423442011.423123, 0.329691, 30.163900, 6.977925, -40.919662, 1696.000000, 0.056130, 0.132138, 0.329691, -0.007233, -0.059222, -1.704127
1423442011.476235, 0.340675, 29.669630, 7.677957, -40.968571, 1696.000000, 0.054071, 0.149626, 0.340675, -0.009462, -0.062601, -1.706803
1423442011.530956, 0.353124, 29.109428, 8.386286, -41.462085, 1696.000000, 0.051015, 0.172567, 0.353124, -0.007931, -0.056184, -1.705142
1423442011.603344, 0.362715, 28.677830, 9.308732, -39.297032, 1699.000000, 0.047947, 0.192430, 0.362715, -0.010538, -0.052072, -1.709638
1423442011.656472, 0.374626, 28.141810, 9.973465, -39.884624, 1698.000000, 0.042334, 0.222806, 0.374626, -0.015853, -0.052315, -1.707578
1423442011.727161, 0.382329, 27.795202, 10.844097, -37.343688, 1701.000000, 0.037320, 0.249599, 0.382329, -0.023986, -0.053387, -1.706502
1423442011.779983, 0.389457, 27.474415, 11.491345, -36.236252, 1703.000000, 0.029037, 0.283090, 0.389457, -0.022243, -0.038027, -1.708335
1423442011.902204, 0.392737, 27.326836, 12.976081, -28.688434, 1712.000000, 0.022485, 0.307656, 0.392737, -0.022857, -0.032989, -1.706706
1423442011.977382, 0.395315, 27.210810, 13.885585, -25.404764, 1716.000000, 0.003978, 0.369637, 0.395315, -0.014887, -0.031087, -1.700874
1423442012.030596, 0.391779, 27.369943, 14.532283, -21.289055, 1721.000000, -0.010273, 0.411690, 0.391779, -0.007932, -0.000256, -1.698756
1423442012.103619, 0.387982, 27.540794, 15.425842, -16.662129, 1726.000000, -0.019712, 0.438136, 0.387982, -0.007211, 0.019077, -1.692483
1423442012.154837, 0.382877, 27.770519, 16.058564, -12.911803, 1731.000000, -0.033897, 0.474707, 0.382877, -0.008149, 0.032946, -1.685354
1423442012.217605, 0.377958, 27.991897, 16.839539, -9.322917, 1736.000000, -0.044635, 0.499497, 0.377958, -0.005533, 0.049151, -1.685739
1423442012.341092, 0.370213, 28.340397, 18.394546, -3.923215, 1743.000000, -0.060168, 0.531453, 0.370213, 0.006047, 0.073973, -1.681474
1423442012.394965, 0.353337, 29.099823, 19.091389, 3.250007, 1751.000000, -0.087061, 0.578399, 0.353337, 0.032326, 0.079346, -1.679163
1423442012.467725, 0.346304, 29.416325, 20.042621, 5.590427, 1755.000000, -0.098057, 0.594570, 0.346304, 0.046700, 0.073526, -1.677796
1423442012.518979, 0.335865, 29.886094, 20.723468, 9.193046, 1760.000000, -0.113201, 0.617746, 0.335865, 0.069231, 0.029382, -1.672241
1423442012.571442, 0.329640, 30.166186, 21.427115, 10.717796, 1762.000000, -0.121453, 0.630601, 0.329640, 0.096543, 0.005184, -1.668507
1423442012.644319, 0.323307, 30.451189, 22.413396, 11.689036, 1765.000000, -0.127806, 0.643822, 0.323307, 0.111277, -0.016804, -1.665273
1423442012.697719, 0.315615, 30.797337, 23.143990, 13.518080, 1767.000000, -0.133661, 0.661999, 0.315615, 0.110293, -0.032954, -1.662686
1423442012.758072, 0.311637, 30.976327, 23.975204, 13.476764, 1768.000000, -0.134344, 0.678516, 0.311637, 0.103083, -0.043991, -1.661735
1423442012.811602, 0.309531, 31.071108, 24.714018, 12.877226, 1769.000000, -0.131162, 0.696180, 0.309531, 0.097580, -0.047975, -1.660785
1423442012.884601, 0.308750, 31.106230, 25.723203, 11.309416, 1768.000000, -0.126211, 0.711843, 0.308750, 0.087615, -0.050437, -1.664246
1423442012.938337, 0.310171, 31.042325, 26.464727, 9.525682, 1767.000000, -0.115996, 0.735825, 0.310171, 0.060060, -0.056111, -1.666995
1423442012.988969, 0.312427, 30.940779, 27.161155, 7.658215, 1766.000000, -0.104851, 0.757165, 0.312427, 0.041168, -0.053911, -1.672406
1423442013.061961, 0.315301, 30.811440, 28.160569, 5.390710, 1764.000000, -0.094092, 0.776848, 0.315301, 0.031125, -0.055910, -1.673737
1423442013.115488, 0.321033, 30.553537, 28.887323, 2.521224, 1762.000000, -0.078494, 0.805319, 0.321033, 0.023709, -0.046984, -1.681972
1423442013.188987, 0.327326, 30.270314, 29.876126, -0.366918, 1760.000000, -0.064579, 0.831324, 0.327326, 0.014199, -0.039581, -1.684376
1423442013.240091, 0.336762, 29.845700, 30.554338, -4.103752, 1756.000000, -0.047261, 0.863407, 0.336762, 0.005898, -0.033264, -1.690080
1423442013.291968, 0.345254, 29.463568, 31.233389, -7.074869, 1754.000000, -0.035357, 0.886254, 0.345254, 0.001079, -0.020467, -1.693549
1423442013.413189, 0.354882, 29.030326, 32.797673, -9.210392, 1753.000000, -0.023636, 0.909503, 0.354882, -0.000000, -0.001908, -1.698521
1423442013.488220, 0.382175, 27.802105, 33.724520, -18.746187, 1743.000000, 0.002701, 0.963457, 0.382175, -0.023625, 0.042463, -1.707897
1423442013.542724, 0.405186, 26.766630, 34.373141, -25.906214, 1735.000000, 0.017372, 0.996324, 0.405186, -0.037696, 0.058157, -1.711664
1423442013.595337, 0.421332, 26.040082, 34.981855, -29.639287, 1731.000000, 0.025120, 1.015164, 0.421332, -0.044142, 0.051531, -1.713456
1423442013.668217, 0.439078, 25.241507, 35.799456, -32.417508, 1729.000000, 0.031630, 1.032526, 0.439078, -0.048422, 0.037152, -1.714844
1423442013.720214, 0.471138, 23.798808, 36.349483, -41.870010, 1718.000000, 0.037540, 1.057134, 0.471138, -0.054172, 0.028152, -1.717157
1423442013.772476, 0.491435, 22.885409, 36.881206, -45.611450, 1714.000000, 0.039089, 1.071730, 0.491435, -0.061710, 0.022876, -1.716186
1423442013.845339, 0.511421, 21.986063, 37.593136, -46.959398, 1713.000000, 0.038927, 1.085599, 0.511421, -0.079961, 0.017620, -1.713170
1423442013.898572, 0.539142, 20.738594, 38.083800, -53.048352, 1706.000000, 0.035288, 1.103793, 0.539142, -0.092097, 0.022596, -1.710429
1423442014.020080, 0.562552, 19.685160, 39.146887, -49.520397, 1709.000000, 0.029462, 1.118758, 0.562552, -0.082579, 0.022198, -1.705897
1423442014.073722, 0.603148, 17.858331, 39.572471, -60.448301, 1697.000000, 0.008907, 1.145374, 0.603148, -0.015616, 0.004628, -1.696828
1423442014.127599, 0.617007, 17.234687, 39.985139, -59.478616, 1698.000000, -0.000897, 1.155873, 0.617007, 0.005551, -0.005008, -1.690275
1423442014.200552, 0.631565, 16.579580, 40.522051, -56.634115, 1700.000000, -0.013601, 1.167003, 0.631565, 0.021631, -0.001240, -1.684499
1423442014.254505, 0.644613, 15.992400, 40.906040, -55.734258, 1701.000000, -0.027255, 1.179592, 0.644613, 0.035845, 0.004630, -1.679758
1423442014.308353, 0.651573, 15.679235, 41.281366, -52.514259, 1704.000000, -0.036287, 1.188180, 0.651573, 0.040499, 0.014473, -1.675170
1423442014.381592, 0.656835, 15.442423, 41.784192, -46.924561, 1710.000000, -0.046406, 1.197483, 0.656835, 0.042942, 0.024198, -1.670209
1423442014.434475, 0.658500, 15.367483, 42.145424, -42.627095, 1715.000000, -0.056993, 1.207245, 0.658500, 0.042557, 0.034042, -1.663992
1423442014.507703, 0.657601, 15.407972, 42.646874, -36.024370, 1722.000000, -0.063962, 1.212806, 0.657601, 0.042023, 0.036891, -1.659744
1423442014.562216, 0.652255, 15.648536, 43.026055, -29.957934, 1729.000000, -0.074216, 1.219315, 0.652255, 0.040839, 0.045772, -1.654709
1423442014.614836, 0.646833, 15.892502, 43.397608, -24.637599, 1735.000000, -0.079606, 1.221988, 0.646833, 0.036669, 0.044375, -1.650720
1423442014.687655, 0.639923, 16.203448, 43.922059, -18.285171, 1742.000000, -0.084123, 1.223678, 0.639923, 0.031639, 0.036254, -1.644312
1423442014.741284, 0.627647, 16.755875, 44.321751, -11.411935, 1750.000000, -0.091115, 1.223947, 0.627647, 0.033519, 0.029985, -1.645378
1423442014.791350, 0.619228, 17.134731, 44.702637, -6.902789, 1755.000000, -0.093878, 1.222779, 0.619228, 0.036587, 0.024662, -1.645868
1423442014.864467, 0.610502, 17.527396, 45.272183, -2.403064, 1760.000000, -0.096917, 1.221700, 0.610502, 0.042088, 0.010673, -1.645498
1423442014.985714, 0.597901, 18.094462, 46.247353, 3.220311, 1768.000000, -0.099945, 1.218488, 0.597901, 0.041353, -0.000612, -1.644075
1423442015.040092, 0.574163, 19.162653, 46.710367, 12.365195, 1778.000000, -0.101243, 1.210893, 0.574163, 0.031305, 0.021824, -1.639941
1423442015.091960, 0.565620, 19.547119, 47.160976, 14.499958, 1781.000000, -0.101772, 1.207106, 0.565620, 0.034474, 0.045998, -1.642731
1423442015.162812, 0.558206, 19.880738, 47.787254, 15.409970, 1783.000000, -0.099672, 1.202230, 0.558206, 0.036595, 0.052268, -1.640551
1423442015.215959, 0.551186, 20.196649, 48.264119, 16.580762, 1785.000000, -0.097674, 1.192619, 0.551186, 0.047503, 0.065527, -1.643519
1423442015.289335, 0.546775, 20.395141, 48.929399, 15.911278, 1785.000000, -0.093767, 1.181407, 0.546775, 0.054319, 0.066542, -1.643200
1423442015.342518, 0.545034, 20.473448, 49.413264, 14.915145, 1785.000000, -0.087847, 1.165362, 0.545034, 0.054280, 0.069105, -1.643431
1423442015.392725, 0.546153, 20.423096, 49.868791, 12.970535, 1783.000000, -0.082685, 1.150365, 0.546153, 0.046799, 0.081461, -1.646005
1423442015.466204, 0.548719, 20.307666, 50.532157, 10.037871, 1781.000000, -0.076998, 1.134442, 0.548719, 0.035387, 0.071804, -1.648532
1423442015.521060, 0.558757, 19.855945, 51.016332, 4.921120, 1776.000000, -0.065880, 1.105035, 0.558757, 0.017958, 0.044842, -1.643337
1423442015.571470, 0.568274, 19.427668, 51.451383, 0.618314, 1771.000000, -0.059400, 1.085100, 0.568274, 0.012728, 0.029316, -1.647363
1423442015.644093, 0.578925, 18.948389, 52.063170, -3.731780, 1767.000000, -0.051951, 1.064483, 0.578925, 0.011627, 0.001943, -1.646626
1423442015.697021, 0.596767, 18.145491, 52.488477, -10.475048, 1760.000000, -0.042197, 1.034942, 0.596767, 0.009792, -0.017714, -1.644956
1423442015.768091, 0.613775, 17.380128, 53.038801, -15.785698, 1755.000000, -0.034580, 1.010132, 0.613775, 0.003412, -0.033328, -1.644524
1423442015.821211, 0.636215, 16.370342, 53.425272, -23.084572, 1747.000000, -0.025987, 0.982179, 0.636215, 0.002548, -0.028925, -1.645224
1423442015.873828, 0.652290, 15.646941, 53.791238, -27.085137, 1742.000000, -0.019524, 0.962803, 0.652290, 0.006086, -0.028740, -1.642246
1423442015.947687, 0.669154, 14.888050, 54.280055, -29.829064, 1739.000000, -0.013358, 0.944146, 0.669154, 0.015698, -0.029127, -1.641923
1423442016.000836, 0.695904, 13.684307, 54.603168, -37.359550, 1731.000000, -0.003170, 0.915554, 0.695904, 0.026517, -0.034136, -1.640381
1423442016.051087, 0.712918, 12.918698, 54.891663, -40.410629, 1727.000000, 0.003315, 0.898372, 0.712918, 0.028208, -0.028206, -1.639257
1423442016.125315, 0.728589, 12.213503, 55.294715, -40.677963, 1727.000000, 0.009631, 0.882833, 0.728589, 0.016582, -0.037462, -1.634447
1423442016.178589, 0.753134, 11.108961, 55.557626, -46.163921, 1721.000000, 0.020220, 0.857669, 0.753134, 0.008306, -0.027363, -1.634250
1423442016.249584, 0.767098, 10.480571, 55.888374, -45.193769, 1721.000000, 0.026965, 0.843511, 0.767098, 0.006396, -0.033816, -1.629869
1423442016.302588, 0.785103, 9.670352, 56.116161, -47.605270, 1718.000000, 0.035435, 0.824746, 0.785103, 0.002266, -0.044592, -1.627303
1423442016.356396, 0.796645, 9.150963, 56.333913, -47.124492, 1718.000000, 0.041562, 0.813396, 0.796645, 0.003252, -0.056599, -1.622731
1423442016.429465, 0.808731, 8.607091, 56.614427, -45.047631, 1720.000000, 0.048504, 0.799412, 0.808731, -0.003549, -0.057105, -1.623219
1423442016.480810, 0.820660, 8.070315, 56.798692, -45.190511, 1720.000000, 0.055228, 0.786451, 0.820660, -0.012554, -0.056126, -1.615568
1423442016.534587, 0.827884, 7.745231, 56.983800, -43.219989, 1722.000000, 0.059292, 0.777549, 0.827884, -0.017696, -0.048468, -1.619924
1423442016.607681, 0.833622, 7.487000, 57.226306, -39.215810, 1725.000000, 0.062176, 0.770425, 0.833622, -0.025791, -0.043876, -1.616456
1423442016.660967, 0.839813, 7.208436, 57.397624, -37.497866, 1727.000000, 0.065580, 0.760547, 0.839813, -0.033752, -0.047405, -1.613502
1423442016.714303, 0.841592, 7.128358, 57.566749, -34.206191, 1730.000000, 0.066549, 0.755601, 0.841592, -0.033437, -0.052291, -1.612942
1423442016.787568, 0.842500, 7.087521, 57.797453, -29.558719, 1735.000000, 0.066107, 0.751429, 0.842500, -0.028262, -0.045055, -1.613083
1423442016.840452, 0.840488, 7.178058, 57.966146, -25.627940, 1740.000000, 0.063938, 0.746484, 0.840488, -0.029322, -0.042148, -1.610751
1423442016.892949, 0.837970, 7.291331, 58.136261, -21.930394, 1743.000000, 0.060478, 0.744781, 0.837970, -0.026548, -0.022663, -1.608681
1423442016.966780, 0.833538, 7.490786, 58.381374, -16.928249, 1749.000000, 0.056990, 0.742967, 0.833538, -0.022473, -0.011623, -1.608586
1423442017.020181, 0.825043, 7.873046, 58.569017, -11.714799, 1755.000000, 0.050529, 0.739822, 0.825043, 0.001770, 0.011405, -1.610713
1423442017.083588, 0.820131, 8.094095, 58.797005, -8.265039, 1759.000000, 0.045452, 0.738011, 0.820131, 0.013172, 0.024912, -1.608791
1423442017.137011, 0.813822, 8.378018, 58.995333, -4.860840, 1763.000000, 0.039708, 0.734749, 0.813822, 0.020899, 0.022901, -1.607752
1423442017.210265, 0.808227, 8.629798, 59.277033, -1.908779, 1766.000000, 0.034462, 0.730319, 0.808227, 0.033178, 0.029239, -1.609629
1423442017.262934, 0.802119, 8.904649, 59.485456, 0.735393, 1769.000000, 0.029461, 0.724091, 0.802119, 0.037042, 0.025129, -1.608322
1423442017.316209, 0.798465, 9.069087, 59.700152, 2.118721, 1771.000000, 0.026508, 0.718842, 0.798465, 0.040252, 0.020963, -1.611950
1423442017.389324, 0.795315, 9.210826, 59.999451, 3.068812, 1772.000000, 0.023731, 0.711531, 0.795315, 0.042138, 0.014483, -1.610203
1423442017.442508, 0.792716, 9.327769, 60.219910, 3.781918, 1773.000000, 0.022443, 0.702177, 0.792716, 0.041633, 0.007606, -1.610331
1423442017.495439, 0.791901, 9.364449, 60.440316, 3.707405, 1774.000000, 0.022659, 0.695813, 0.791901, 0.041353, -0.008054, -1.608666
1423442017.550519, 0.792817, 9.323233, 60.668664, 2.932427, 1773.000000, 0.023171, 0.689196, 0.792817, 0.044390, -0.009802, -1.608017
1423442017.623713, 0.794468, 9.248937, 60.969287, 1.843104, 1772.000000, 0.025290, 0.681710, 0.794468, 0.043421, -0.021598, -1.606894
1423442017.676309, 0.799436, 9.025381, 61.180377, -0.338044, 1770.000000, 0.028652, 0.673817, 0.799436, 0.039596, -0.030678, -1.605797
1423442017.730071, 0.804951, 8.777184, 61.390113, -2.507887, 1768.000000, 0.032336, 0.668384, 0.804951, 0.035042, -0.037481, -1.603022
1423442017.803451, 0.810518, 8.526709, 61.668111, -4.366391, 1766.000000, 0.036966, 0.664107, 0.810518, 0.029435, -0.041294, -1.603399
1423442017.856194, 0.819997, 8.100146, 61.858017, -7.697395, 1762.000000, 0.043076, 0.660813, 0.819997, 0.011026, -0.050795, -1.601901
1423442017.929456, 0.828473, 7.718730, 62.109295, -9.960138, 1760.000000, 0.047201, 0.659332, 0.828473, -0.003295, -0.043202, -1.601320
1423442017.982326, 0.842186, 7.101626, 62.276192, -14.392161, 1755.000000, 0.052807, 0.659594, 0.842186, -0.024957, -0.045354, -1.601268
1423442018.034077, 0.851709, 6.673090, 62.429718, -16.711355, 1752.000000, 0.055983, 0.660797, 0.851709, -0.038053, -0.046790, -1.601050
1423442018.107618, 0.861872, 6.215755, 62.632984, -18.317344, 1751.000000, 0.057129, 0.663222, 0.861872, -0.043140, -0.041176, -1.597993
1423442018.161438, 0.878794, 5.454262, 62.763380, -23.115551, 1745.000000, 0.056794, 0.669044, 0.878794, -0.038913, -0.040286, -1.598821
1423442018.214006, 0.888946, 4.997417, 62.880035, -24.748245, 1743.000000, 0.055156, 0.673787, 0.888946, -0.029032, -0.045443, -1.598693
1423442018.287381, 0.899267, 4.532979, 63.027991, -25.241573, 1742.000000, 0.052877, 0.679323, 0.899267, -0.016033, -0.041405, -1.596428
1423442018.341438, 0.915477, 3.803513, 63.119318, -28.998355, 1738.000000, 0.047830, 0.689316, 0.915477, 0.003645, -0.034075, -1.595058
1423442018.393579, 0.925861, 3.336244, 63.196606, -30.128830, 1736.000000, 0.044208, 0.696578, 0.925861, 0.006006, -0.030140, -1.592284
1423442018.466319, 0.935169, 2.917402, 63.290937, -29.468084, 1737.000000, 0.040347, 0.704525, 0.935169, 0.008039, -0.038190, -1.594660
1423442018.518572, 0.949645, 2.265966, 63.343553, -32.179440, 1733.000000, 0.033874, 0.718115, 0.949645, 0.008776, -0.030188, -1.590769
1423442018.591056, 0.957939, 1.892761, 63.404543, -30.830734, 1734.000000, 0.029458, 0.727324, 0.957939, 0.009116, -0.021084, -1.589168
1423442018.644324, 0.968244, 1.429027, 63.438368, -31.668914, 1733.000000, 0.023617, 0.739889, 0.968244, 0.015047, 0.000739, -1.588735
1423442018.698206, 0.974626, 1.141841, 63.465709, -30.809335, 1734.000000, 0.019773, 0.748094, 0.974626, 0.016072, 0.023986, -1.587268
1423442018.752564, 0.981583, 0.828772, 63.485740, -30.241235, 1734.000000, 0.014327, 0.757670, 0.981583, 0.014732, 0.042374, -1.587913
1423442018.825670, 0.986589, 0.603505, 63.505350, -27.821676, 1736.000000, 0.010153, 0.764075, 0.986589, 0.010834, 0.052408, -1.589825
1423442018.879317, 0.994479, 0.248425, 63.511273, -27.993065, 1736.000000, 0.003758, 0.771575, 0.994479, 0.003926, 0.063889, -1.587369
1423442019.002295, 0.998726, 0.057335, 63.514407, -22.806635, 1741.000000, -0.000421, 0.774342, 0.998726, 0.004962, 0.060794, -1.587513
1423442019.056301, 1.007511, -0.337987, 63.506294, -23.857267, 1739.000000, -0.011229, 0.775476, 1.007511, 0.026664, 0.040614, -1.587655
1423442019.128827, 1.010745, -0.483507, 63.490710, -21.690520, 1741.000000, -0.015534, 0.773055, 1.010745, 0.035787, 0.029542, -1.584663
1423442019.181812, 1.013956, -0.627998, 63.475917, -20.675690, 1742.000000, -0.020484, 0.769268, 1.013956, 0.042673, 0.020507, -1.584137
1423442019.234057, 1.015554, -0.699920, 63.459665, -19.154509, 1744.000000, -0.023148, 0.765816, 1.015554, 0.047103, 0.008358, -1.584725
1423442019.310332, 1.016613, -0.747606, 63.434333, -16.657780, 1746.000000, -0.024830, 0.760822, 1.016613, 0.041862, -0.005069, -1.581212
